#For SF galaxies, QTime is the duration of the last period when they were quenched.
#sm <FQ> AvgErr <QTime> AvgErr Median_QTime 1Sig+ 1Sig- <A_SM10> AvgErr Median_A_SM10 1Sig+ 1Sig- <A_SM50> AvgErr Median_A_SM50 1Sig+ 1Sig- <A_SM90> AvgErr Median_A_SM90 1Sig+ 1Sig- Counts
7.61793e+07 0.000114915 1.43635e-05 665283 27548.7 0 0 0 0.18436 5.24537e-05 0.180971 0.0429595 0.0354638 0.255261 4.60108e-05 0.257007 0.0333654 0.0353883 0.31566 1.55895e-05 0.317729 0.00840142 0.0118917 556935
1.57036e+08 0.000275968 3.8638e-05 1.11654e+06 61769.1 0 0 0 0.185918 9.19651e-05 0.1834 0.0426112 0.037096 0.259852 7.64134e-05 0.261405 0.0325426 0.0337258 0.317284 2.38913e-05 0.318963 0.00787771 0.0107505 184804
2.48795e+08 0.000449631 5.57575e-05 1.8802e+06 99009.4 0 0 0 0.188339 0.000104962 0.186212 0.0427887 0.0378993 0.262523 8.41561e-05 0.264077 0.0317798 0.0329095 0.318078 2.55148e-05 0.319596 0.0076862 0.0102118 144563
3.94427e+08 0.00104626 9.62658e-05 2.83849e+06 138033 0 0 0 0.190997 0.000119092 0.189165 0.0428658 0.0382797 0.264967 9.24e-05 0.266386 0.0312443 0.0320247 0.31877 2.74827e-05 0.320232 0.00737759 0.00983891 112783
6.24894e+08 0.00257288 0.000170549 4.30138e+06 197984 0 0 0 0.193533 0.000134087 0.191975 0.0423978 0.0384267 0.266764 0.000102248 0.26822 0.0306939 0.0314574 0.319206 3.08116e-05 0.320643 0.00719622 0.00954166 88228
9.9041e+08 0.00488576 0.000266685 6.33715e+06 284021 0 0 0 0.196657 0.000152328 0.194971 0.0429199 0.0382104 0.268783 0.000114183 0.27042 0.0297688 0.0312872 0.319584 3.62234e-05 0.321115 0.00697613 0.00935304 68362
1.57003e+09 0.00842728 0.00039428 9.86871e+06 395041 0 0 0 0.199386 0.000172247 0.198081 0.0424355 0.038845 0.270671 0.000127619 0.2726 0.0290628 0.0312401 0.319973 4.22405e-05 0.321709 0.00674438 0.00940368 53754
2.48412e+09 0.01604 0.000615615 1.50282e+07 574078 0 0 0 0.202378 0.000196636 0.201442 0.0425119 0.0397809 0.272817 0.000144232 0.274688 0.029243 0.0309742 0.320334 5.28802e-05 0.322329 0.00660548 0.00948933 41646
3.93938e+09 0.0280485 0.000922784 2.38589e+07 822306 0 0 0 0.20517 0.000223785 0.203818 0.0430597 0.0391787 0.274701 0.000165657 0.276926 0.0288321 0.03094 0.320571 6.83552e-05 0.323025 0.00631034 0.00950491 32016
6.25491e+09 0.0485211 0.00136121 3.77261e+07 1.17544e+06 0 0 0 0.208122 0.000255512 0.207106 0.0431553 0.0396442 0.276736 0.000190212 0.279612 0.0280635 0.0318843 0.320483 9.03635e-05 0.32376 0.00591907 0.00996044 24917
9.91987e+09 0.0735189 0.00186357 5.00467e+07 1.48849e+06 0 0 0 0.211966 0.00029245 0.211316 0.04374 0.0409167 0.279367 0.000215017 0.28296 0.0272077 0.0325566 0.320481 0.000113668 0.324582 0.00547457 0.0104502 19614
1.57475e+10 0.110333 0.00247789 6.94073e+07 1.95673e+06 0 0 0 0.215611 0.000327854 0.214987 0.0444618 0.0420414 0.281642 0.000239955 0.286197 0.0256657 0.0328449 0.319769 0.000146919 0.325128 0.00515151 0.0113951 15988
2.49649e+10 0.148823 0.00309596 8.89509e+07 2.34491e+06 0 0 0 0.217661 0.000360595 0.218212 0.0434528 0.0436391 0.281757 0.000267576 0.286937 0.0246115 0.0329693 0.318487 0.000176858 0.325061 0.00507 0.0141633 13217
3.9463e+10 0.210052 0.00388707 1.15027e+08 2.89036e+06 0 0 0 0.219445 0.000397324 0.219275 0.0445992 0.0427793 0.280623 0.000304919 0.286731 0.0242096 0.0356307 0.31601 0.000222111 0.324558 0.00530314 0.0207939 10983
6.24772e+10 0.258962 0.00468847 1.21897e+08 3.17936e+06 0 3.60165e+08 0 0.219017 0.000443277 0.219389 0.0438897 0.0437326 0.277653 0.000350592 0.284209 0.0245358 0.0378558 0.31342 0.000263839 0.323334 0.00584599 0.0276245 8731
9.85914e+10 0.305166 0.00565184 1.44945e+08 3.94981e+06 0 4.66944e+08 0 0.216088 0.000499009 0.216815 0.0419571 0.0432246 0.272855 0.000416079 0.279955 0.0249312 0.0405841 0.309563 0.000330166 0.321045 0.00709045 0.0340101 6639
1.54967e+11 0.344762 0.00733477 1.53312e+08 5.14083e+06 0 4.66944e+08 0 0.210657 0.000625577 0.210923 0.0420023 0.042652 0.264914 0.000545054 0.270923 0.0287651 0.0397457 0.304826 0.000444464 0.316782 0.00961897 0.0382795 4200
2.42072e+11 0.394286 0.0111413 1.61921e+08 7.64881e+06 0 5.36715e+08 0 0.202013 0.000879606 0.201478 0.0407367 0.0385361 0.254332 0.000820536 0.259413 0.0315938 0.0419309 0.298617 0.000677478 0.309581 0.0139118 0.0400865 1925
3.78398e+11 0.468484 0.0206137 1.91836e+08 1.43654e+07 0 6.06006e+08 0 0.193279 0.00155603 0.192385 0.0388188 0.0393801 0.240556 0.00151193 0.241059 0.0389775 0.0395567 0.289287 0.00128516 0.29687 0.0218673 0.0406085 587
5.85904e+11 0.392857 0.0536073 1.54407e+08 3.34287e+07 0 5.36715e+08 0 0.18112 0.00378725 0.182813 0.034414 0.0389786 0.230623 0.00376664 0.235717 0.026242 0.047991 0.286089 0.00326513 0.296594 0.01742 0.0404162 84
8.71754e+11 0.625 0.182981 1.60099e+08 1.05011e+08 0 6.06006e+08 0 0.174167 0.00558521 0.179521 0.00303794 0.0199262 0.222515 0.00874528 0.223381 0.0146535 0.0163322 0.287282 0.0078372 0.294125 0.0107403 0.0375531 8
