#For SF galaxies, QTime is the duration of the last period when they were quenched.
#mpeak <FQ> AvgErr <QTime> AvgErr Median_QTime 1Sig+ 1Sig- <A_SM10> AvgErr Median_A_SM10 1Sig+ 1Sig- <A_SM50> AvgErr Median_A_SM50 1Sig+ 1Sig- <A_SM90> AvgErr Median_A_SM90 1Sig+ 1Sig- Counts
7.66851e+09 2.01909e-05 1.67099e-06 124041 3063.22 0 0 0 0.232831 1.63929e-05 0.23281 0.0494226 0.0477219 0.270199 1.49817e-05 0.276373 0.0367831 0.0512161 0.314364 7.28518e-06 0.320203 0.0101075 0.0214928 7230987
1.56626e+10 1.21528e-05 2.29664e-06 309456 8902.33 0 0 0 0.206613 2.86954e-05 0.202696 0.0508675 0.0400013 0.254828 2.6921e-05 0.258119 0.0402639 0.0463913 0.311098 1.22943e-05 0.315627 0.0115625 0.0199463 2304003
2.47493e+10 1.92127e-05 3.45067e-06 582862 14997.2 0 0 0 0.192518 3.41092e-05 0.187381 0.0505223 0.0372773 0.249149 3.16045e-05 0.251543 0.0392959 0.0436882 0.311213 1.33679e-05 0.314962 0.0109208 0.0177085 1613517
3.91154e+10 9.18662e-05 9.0957e-06 983541 24493 0 0 0 0.184415 4.01416e-05 0.179087 0.0477323 0.0357835 0.249079 3.64007e-05 0.251012 0.0375119 0.0404707 0.312031 1.47127e-05 0.315271 0.0103087 0.0161265 1110310
6.18724e+10 0.000379721 2.31047e-05 1.91017e+06 45977.8 0 0 0 0.183083 4.95083e-05 0.17892 0.0460588 0.0369776 0.253475 4.34531e-05 0.25537 0.0359595 0.0385542 0.313823 1.67262e-05 0.316714 0.00959751 0.0146715 711049
9.81496e+10 0.00149628 5.85102e-05 3.83568e+06 85454.9 0 0 0 0.186236 6.32475e-05 0.18331 0.0453196 0.0388981 0.258537 5.32764e-05 0.260516 0.0346898 0.0371133 0.315442 2.01987e-05 0.31813 0.00905916 0.0136428 436416
1.55531e+11 0.00468056 0.000132341 8.19015e+06 167428 0 0 0 0.191323 8.09565e-05 0.189117 0.0449303 0.039793 0.26304 6.56835e-05 0.265348 0.0332089 0.036006 0.316648 2.57165e-05 0.319355 0.00851563 0.0127706 265994
2.46285e+11 0.0129865 0.000281408 1.63725e+07 305713 0 0 0 0.196714 0.00010308 0.195141 0.0441782 0.0403109 0.267304 8.108e-05 0.269934 0.0312462 0.0347383 0.317643 3.44622e-05 0.320741 0.00773889 0.0124266 161861
3.90359e+11 0.0304797 0.000550697 3.18927e+07 554719 0 0 0 0.202842 0.000132079 0.201622 0.0438686 0.0405558 0.272234 0.000101861 0.275358 0.029619 0.0340461 0.318796 4.85427e-05 0.322504 0.00674441 0.0119286 97442
6.18227e+11 0.0676802 0.0010394 6.07388e+07 974061 0 0 0 0.210282 0.000172262 0.209779 0.0441087 0.0421617 0.277862 0.000130151 0.282128 0.0274162 0.0343562 0.319536 7.25665e-05 0.3245 0.00565279 0.012118 58407
9.79604e+11 0.136077 0.00186447 1.08439e+08 1.67479e+06 0 0 0 0.217642 0.000230099 0.217972 0.0445219 0.0440499 0.281949 0.000174358 0.287748 0.0253145 0.0354713 0.318211 0.000116239 0.325493 0.00514787 0.0164568 33819
1.55097e+12 0.241958 0.00307749 1.81312e+08 2.82945e+06 0 5.36715e+08 0 0.219724 0.000303807 0.220846 0.04336 0.0450033 0.280043 0.000241364 0.286881 0.0251575 0.0388103 0.313894 0.000183265 0.324294 0.00600821 0.0283715 19367
2.45153e+12 0.400694 0.00474449 3.04217e+08 4.83612e+06 0 8.10788e+08 0 0.212765 0.000404856 0.213588 0.0427581 0.044745 0.270209 0.000362042 0.277694 0.0287665 0.0445426 0.305014 0.000305878 0.318375 0.010537 0.0413215 10669
3.89139e+12 0.577185 0.0064418 4.53518e+08 7.40564e+06 0 1.0763e+09 0 0.201192 0.00053296 0.201134 0.0432136 0.04214 0.256055 0.000501306 0.26099 0.0340759 0.0433657 0.292635 0.000462264 0.303145 0.0220729 0.0467651 5882
6.15589e+12 0.745125 0.0081332 6.26471e+08 1.15765e+07 5.36715e+08 7.32719e+08 5.36715e+08 0.186952 0.000695434 0.186069 0.0386542 0.0364055 0.239133 0.000718808 0.241678 0.0377207 0.0420998 0.278669 0.000715528 0.286045 0.031321 0.0483842 2872
9.74369e+12 0.85138 0.00946636 7.75816e+08 1.67246e+07 6.74785e+08 7.82323e+08 6.74785e+08 0.178569 0.000925013 0.177459 0.0366429 0.034393 0.227047 0.00100438 0.228926 0.0356712 0.0402868 0.268276 0.00103979 0.275465 0.0322732 0.0490496 1413
1.52798e+13 0.923664 0.0103832 9.97202e+08 2.51286e+07 1.01076e+09 6.87579e+08 6.56403e+08 0.165621 0.00124726 0.162944 0.0370753 0.0282494 0.213555 0.00148172 0.211641 0.0379422 0.0362478 0.257135 0.00159649 0.257923 0.0439752 0.0414933 655
2.46717e+13 0.952569 0.0133899 1.16564e+09 3.84107e+07 1.20565e+09 5.51314e+08 6.68934e+08 0.159661 0.00182179 0.15889 0.0322562 0.0286122 0.206062 0.00264999 0.206447 0.0369979 0.0414748 0.257062 0.00301775 0.260665 0.0518762 0.0567599 253
3.82227e+13 0.988636 0.0113636 1.33073e+09 5.63179e+07 1.33261e+09 4.82918e+08 5.89564e+08 0.145793 0.00311287 0.142059 0.0319546 0.025373 0.188014 0.00424626 0.18541 0.0378736 0.0343386 0.24449 0.00515622 0.241908 0.0651361 0.043919 88
5.80382e+13 0.954545 0.0454545 1.5456e+09 1.36394e+08 1.69834e+09 5.54076e+08 6.87579e+08 0.147375 0.00581451 0.149552 0.013132 0.0315692 0.201301 0.0104665 0.192769 0.0483314 0.026046 0.257814 0.0120528 0.280654 0.0420692 0.0953257 22
9.46856e+13 1 0 1.53884e+09 1.05838e+08 1.45711e+09 3.58422e+08 1.87674e+08 0.146128 0.00823088 0.144205 0.030147 0.0213496 0.205321 0.027719 0.193838 0.118136 0.0324626 0.279991 0.0292954 0.324626 0.00807855 0.122941 5
