#For SF galaxies, QTime is the duration of the last period when they were quenched.
#mpeak <FQ> AvgErr <QTime> AvgErr Median_QTime 1Sig+ 1Sig- <A_SM10> AvgErr Median_A_SM10 1Sig+ 1Sig- <A_SM50> AvgErr Median_A_SM50 1Sig+ 1Sig- <A_SM90> AvgErr Median_A_SM90 1Sig+ 1Sig- Counts
8.24733e+09 0.0069977 4.39539e-05 1.04029e+08 223071 0 0 0 0.514132 7.56006e-05 0.499134 0.160116 0.121032 0.738111 5.94364e-05 0.744259 0.104979 0.116675 0.94359 2.55367e-05 0.955572 0.0212578 0.0389714 3596751
1.56902e+10 0.00721068 6.5491e-05 8.06247e+07 258254 0 0 0 0.412403 8.76624e-05 0.404917 0.109251 0.0984198 0.685957 7.69238e-05 0.692083 0.0894719 0.102178 0.934416 3.23775e-05 0.944747 0.020781 0.0393237 1669052
2.47376e+10 0.0077169 8.01258e-05 7.64032e+07 295777 0 0 0 0.377541 9.65797e-05 0.371333 0.1014 0.0949681 0.681394 8.46595e-05 0.686829 0.0836736 0.0937863 0.93579 3.28963e-05 0.943882 0.0196191 0.033832 1192707
3.91158e+10 0.00889262 0.000104052 7.97043e+07 369360 0 0 0 0.368066 0.000111004 0.362375 0.0963877 0.090196 0.687288 9.13821e-05 0.690378 0.0761082 0.0819663 0.937235 3.42802e-05 0.943435 0.0183873 0.0291717 814046
6.20284e+10 0.0101619 0.000136512 9.17509e+07 500745 0 0 0 0.375577 0.000130055 0.370492 0.0907585 0.0854645 0.693103 0.000102725 0.694596 0.0702576 0.0749642 0.937904 3.93115e-05 0.94317 0.0174407 0.0262807 539760
9.83586e+10 0.0120599 0.000183871 1.13657e+08 711065 0 0 0 0.393115 0.000151707 0.388335 0.0852917 0.0792977 0.700441 0.000119514 0.701696 0.0647624 0.070547 0.936833 4.99871e-05 0.941835 0.0174757 0.0249764 352409
1.5578e+11 0.013935 0.000246864 1.46139e+08 1.04104e+06 0 0 0 0.414508 0.00018212 0.408919 0.083086 0.0743613 0.702444 0.000143775 0.702345 0.0620571 0.0651254 0.928986 7.49599e-05 0.935109 0.0203716 0.0294985 225475
2.46722e+11 0.0169785 0.000342054 1.9614e+08 1.54491e+06 0 3.43845e+08 0 0.431332 0.000220121 0.425883 0.0807121 0.0716628 0.687175 0.000181306 0.68382 0.0651276 0.0600652 0.906874 0.000128816 0.915894 0.0302477 0.0459679 142651
3.9073e+11 0.0202202 0.000474931 2.84408e+08 2.45423e+06 0 5.99222e+08 0 0.439233 0.000273584 0.434489 0.0782847 0.0702072 0.652823 0.000244326 0.646972 0.0708827 0.0589547 0.863975 0.000234671 0.875297 0.0517076 0.0758442 87833
6.18801e+11 0.0243866 0.000661989 4.14665e+08 3.93531e+06 0 9.0946e+08 0 0.434093 0.000340974 0.429429 0.0776986 0.0683485 0.60989 0.000327556 0.603043 0.0744514 0.0614016 0.805315 0.000385771 0.811463 0.0845142 0.0967643 54292
9.79459e+11 0.0339368 0.00101689 6.30295e+08 6.56175e+06 0 1.37934e+09 0 0.414796 0.000442297 0.410536 0.074503 0.0673835 0.563993 0.000451514 0.556125 0.0776302 0.0633548 0.744114 0.000596806 0.73881 0.118192 0.0972117 31706
1.54863e+12 0.0569375 0.00172291 1.03415e+09 1.14834e+07 4.63191e+08 1.67459e+09 4.63191e+08 0.388922 0.000603498 0.384833 0.0749468 0.0696814 0.521928 0.00066625 0.512928 0.0826066 0.0692922 0.692728 0.000924238 0.682231 0.142143 0.110612 18090
2.44876e+12 0.0837781 0.00270494 1.62504e+09 1.95573e+07 9.12884e+08 2.4191e+09 9.12884e+08 0.35828 0.000796481 0.355533 0.073649 0.0735287 0.482745 0.000983736 0.470744 0.0934283 0.0757064 0.65832 0.00144968 0.643724 0.175391 0.137569 10492
3.89899e+12 0.119571 0.00426846 2.49815e+09 3.46837e+07 1.43127e+09 4.07859e+09 1.07962e+09 0.328773 0.00112525 0.325023 0.0779859 0.076955 0.454274 0.00165972 0.431923 0.117839 0.0848078 0.634915 0.0023546 0.626933 0.213659 0.18984 5779
6.13005e+12 0.145576 0.00628186 3.40582e+09 5.53809e+07 2.09125e+09 5.3841e+09 1.49936e+09 0.302747 0.0014409 0.298751 0.0714457 0.070622 0.439114 0.00265253 0.402131 0.156753 0.0822568 0.633778 0.00354677 0.627521 0.241473 0.225848 3153
9.75793e+12 0.178286 0.00915216 4.39358e+09 8.36368e+07 3.40132e+09 5.3056e+09 2.68437e+09 0.28445 0.00209326 0.27652 0.0733988 0.0681856 0.437097 0.00416275 0.379922 0.234661 0.0879422 0.643487 0.00506576 0.666067 0.217295 0.284203 1750
1.56292e+13 0.232731 0.0137828 5.80455e+09 1.2414e+08 6.66231e+09 3.24355e+09 5.64113e+09 0.274241 0.00313605 0.258689 0.0792079 0.0607388 0.443817 0.00622209 0.375619 0.28721 0.102088 0.672806 0.00735328 0.708046 0.210479 0.328536 941
2.43358e+13 0.295508 0.0222109 6.10633e+09 1.9348e+08 7.08859e+09 3.31531e+09 6.03737e+09 0.26389 0.00429648 0.253423 0.068125 0.0636304 0.454659 0.0098495 0.387893 0.311333 0.113915 0.69613 0.0112265 0.74792 0.197915 0.345645 423
3.86391e+13 0.367089 0.0313762 6.94946e+09 2.67515e+08 8.50774e+09 2.25885e+09 7.33949e+09 0.258636 0.00584206 0.245932 0.0691075 0.0592099 0.477009 0.0130654 0.426955 0.265765 0.153009 0.720895 0.0135878 0.757787 0.187129 0.28248 237
6.04706e+13 0.576923 0.0486799 7.11826e+09 4.02405e+08 9.20152e+09 1.84705e+09 7.70054e+09 0.238884 0.00817966 0.217195 0.0754549 0.0479414 0.457053 0.0202296 0.398411 0.291706 0.149855 0.738522 0.0196521 0.792834 0.128062 0.283463 104
9.45949e+13 0.576923 0.0691805 8.17516e+09 5.74195e+08 9.87888e+09 1.83863e+09 8.25246e+09 0.270125 0.022031 0.226054 0.0998892 0.0422103 0.533502 0.028096 0.542416 0.192617 0.239877 0.809258 0.0229799 0.836221 0.138717 0.143041 52
1.61204e+14 0.529412 0.124784 8.54362e+09 9.87208e+08 1.00596e+10 1.90933e+09 8.3325e+09 0.234417 0.0199171 0.203723 0.0973824 0.0498289 0.51032 0.0448534 0.570429 0.0862805 0.272109 0.785954 0.0375795 0.826559 0.0975249 0.200214 17
2.32377e+14 0.833333 0.166667 8.953e+09 1.76255e+09 1.17813e+10 1.22261e+09 9.45521e+09 0.220024 0.0337561 0.213177 0.155796 0.0998725 0.682103 0.0739636 0.717463 0.187249 0.335921 0.880306 0.0547834 0.944178 0.0505832 0.288995 6
3.75618e+14 0.8 0.2 9.99769e+09 1.70037e+09 1.14565e+10 9.28106e+08 8.22166e+09 0.254985 0.0501269 0.202453 0.224985 0.0537138 0.514289 0.0894756 0.500453 0.272901 0.260453 0.825841 0.0560878 0.871148 0.0656666 0.238749 5
6.06629e+14 0.666667 0.333333 8.1486e+09 3.49992e+09 1.11866e+10 9.04263e+08 1.00184e+10 0.298009 0.0660072 0.311197 0.0939743 0.133538 0.51108 0.120646 0.532412 0.176149 0.240145 0.928726 0.0313664 0.936132 0.04284 0.0650567 3
