#For SF galaxies, QTime is the duration of the last period when they were quenched.
#sm <FQ> AvgErr <QTime> AvgErr Median_QTime 1Sig+ 1Sig- <A_SM10> AvgErr Median_A_SM10 1Sig+ 1Sig- <A_SM50> AvgErr Median_A_SM50 1Sig+ 1Sig- <A_SM90> AvgErr Median_A_SM90 1Sig+ 1Sig- Counts
7.71804e+07 1.22613e-05 3.69692e-06 469769 17215.9 0 0 0 0.226517 6.39605e-05 0.219078 0.0666846 0.0518332 0.355838 6.22167e-05 0.36081 0.0520376 0.0631017 0.467279 2.45494e-05 0.4725 0.0135302 0.0227408 897128
1.57174e+08 8.97881e-06 5.1839e-06 691728 36066.3 0 0 0 0.228784 0.000106078 0.222258 0.0668847 0.0536928 0.361428 9.78803e-05 0.366158 0.0496243 0.0599559 0.469134 3.5636e-05 0.473527 0.01272 0.0206368 334120
2.48953e+08 2.25171e-05 9.19249e-06 923444 45588.2 0 0 0 0.233301 0.000119678 0.227298 0.0668167 0.0548943 0.36553 0.000105879 0.369981 0.0478565 0.0577067 0.470217 3.76187e-05 0.474284 0.0123055 0.0197491 266464
3.94392e+08 1.43857e-05 8.30553e-06 1.33048e+06 65216.1 0 0 0 0.238522 0.000136017 0.232772 0.0670682 0.0553626 0.36964 0.000115758 0.373555 0.0468137 0.0553817 0.471521 4.07473e-05 0.475416 0.0117921 0.0189849 208541
6.25024e+08 1.83568e-05 1.05983e-05 2.03186e+06 96863.8 0 0 0 0.244314 0.000153836 0.238953 0.0668879 0.0559498 0.374478 0.000126993 0.37821 0.0454371 0.0532482 0.473237 4.34252e-05 0.476979 0.0110428 0.0179748 163427
9.89707e+08 7.94187e-05 2.51135e-05 2.71278e+06 133167 0 0 0 0.250431 0.00017637 0.2453 0.0670889 0.0568807 0.380261 0.000140532 0.383816 0.0443621 0.0519935 0.47548 4.62151e-05 0.478968 0.010184 0.0166138 125915
1.56793e+09 0.000153766 3.96993e-05 4.61209e+06 217574 0 0 0 0.257682 0.000200929 0.253281 0.0666347 0.0581749 0.387985 0.000155006 0.391838 0.0427423 0.0501723 0.478177 4.78498e-05 0.481405 0.00908527 0.0151441 97551
2.49005e+09 0.000539452 8.42261e-05 7.05289e+06 299569 0 0 0 0.266045 0.000230482 0.261265 0.0681098 0.0580464 0.396977 0.000168566 0.401283 0.0401788 0.0489652 0.480726 4.87515e-05 0.483621 0.00802875 0.0132952 76003
3.94644e+09 0.00128047 0.000145831 1.16478e+07 460490 0 0 0 0.275546 0.000260202 0.271573 0.0677197 0.0598073 0.406581 0.000175484 0.410979 0.0364662 0.0449115 0.482893 4.9401e-05 0.485417 0.0070487 0.0113882 60134
6.26833e+09 0.00204332 0.000204125 1.88041e+07 685845 0 0 0 0.286582 0.000289468 0.282636 0.0685938 0.0603458 0.415213 0.000178537 0.418917 0.0337707 0.0393521 0.484128 5.27756e-05 0.486482 0.00655994 0.0105333 48940
9.93639e+09 0.00386909 0.000308193 2.7849e+07 935799 0 0 0 0.297703 0.00031773 0.294715 0.0680201 0.0610624 0.420782 0.000179637 0.423806 0.0312929 0.035644 0.484306 5.98135e-05 0.486678 0.00655523 0.010413 40578
1.57745e+10 0.00754553 0.000465298 4.34089e+07 1.24643e+06 0 0 0 0.306968 0.000337442 0.305185 0.0654421 0.0611556 0.423494 0.000183941 0.425853 0.0306837 0.0330903 0.483715 7.16091e-05 0.48647 0.00665078 0.0106991 34590
2.49757e+10 0.0131343 0.000656513 6.56344e+07 1.64381e+06 0 0 0 0.314009 0.000350245 0.313633 0.0616269 0.0608135 0.422779 0.000195431 0.42536 0.0302812 0.0327424 0.481602 9.66918e-05 0.485411 0.007193 0.0124309 30074
3.95488e+10 0.0217001 0.000930574 8.53317e+07 2.09544e+06 0 0 0 0.317337 0.000371268 0.316787 0.0593301 0.0576033 0.418265 0.000224492 0.421373 0.0305687 0.0341538 0.478052 0.000131493 0.483219 0.00820193 0.0153955 24516
6.22292e+10 0.0344239 0.00131077 1.02202e+08 2.53086e+06 0 0 0 0.317587 0.000400996 0.317682 0.0558523 0.0554585 0.410908 0.000266762 0.414406 0.0319587 0.0367014 0.472676 0.000179221 0.479449 0.0101042 0.0201036 19347
9.81685e+10 0.0583313 0.00209225 1.2453e+08 3.60365e+06 0 0 0 0.312978 0.000482637 0.312996 0.0535221 0.0530265 0.400002 0.000349753 0.40353 0.0335639 0.0391979 0.464507 0.00026796 0.472795 0.0135878 0.026921 12549
1.53387e+11 0.0958346 0.00368387 1.6245e+08 6.08204e+06 0 0 0 0.305043 0.00064974 0.306287 0.0498486 0.0513418 0.38502 0.000533834 0.389736 0.0352105 0.0415999 0.452673 0.000457891 0.463088 0.0182541 0.036767 6386
2.39828e+11 0.151316 0.0075066 2.62177e+08 1.34237e+07 0 6.11817e+08 0 0.28949 0.00108292 0.289389 0.0513538 0.051336 0.363374 0.000963472 0.366988 0.0408224 0.0470195 0.434499 0.000902503 0.444471 0.0288534 0.0495368 2280
3.71668e+11 0.247619 0.0210865 5.22938e+08 4.51656e+07 0 1.33034e+09 0 0.264565 0.00246031 0.265628 0.0483668 0.0510134 0.334767 0.00252595 0.339907 0.0415168 0.0516835 0.408749 0.00249489 0.414758 0.0428533 0.0574066 420
5.81046e+11 0.416667 0.0719124 9.27348e+08 1.61308e+08 6.11817e+08 1.56582e+09 6.11817e+08 0.228037 0.00762828 0.224986 0.0470165 0.0424356 0.303062 0.00885675 0.302098 0.0543088 0.0547516 0.394424 0.00892237 0.403156 0.0611845 0.068136 48
8.91396e+11 0.333333 0.333333 5.21738e+08 5.21738e+08 0 1.56521e+09 0 0.202036 0.0110614 0.202954 0.0177658 0.0205189 0.288905 0.0206485 0.268359 0.0618434 0.000203609 0.349374 0.0185366 0.335587 0.0504842 0.00912273 3
1.30387e+12 1 1 3.72477e+09 3.72477e+09 3.72477e+09 0 0 0.158932 0.158932 0.158932 0 0 0.36787 0.36787 0.36787 0 0 0.474433 0.474433 0.474433 0 0 1
