#For SF galaxies, QTime is the duration of the last period when they were quenched.
#sm <FQ> AvgErr <QTime> AvgErr Median_QTime 1Sig+ 1Sig- <A_SM10> AvgErr Median_A_SM10 1Sig+ 1Sig- <A_SM50> AvgErr Median_A_SM50 1Sig+ 1Sig- <A_SM90> AvgErr Median_A_SM90 1Sig+ 1Sig- Counts
7.61793e+07 0.000114915 1.43635e-05 707257 28754.9 0 0 0 0.182784 5.44136e-05 0.178796 0.045272 0.0363056 0.251697 5.03521e-05 0.253905 0.0364987 0.039442 0.312708 2.13836e-05 0.316193 0.00986528 0.015848 556935
1.57036e+08 0.000275968 3.8638e-05 1.25884e+06 69103.4 0 0 0 0.184576 9.59614e-05 0.181715 0.0452102 0.0386821 0.25687 8.34892e-05 0.258998 0.0351816 0.0376129 0.314899 3.19714e-05 0.317776 0.0090704 0.0142019 184804
2.48795e+08 0.000449631 5.57575e-05 2.16701e+06 112531 0 0 0 0.187107 0.000109407 0.184702 0.0451544 0.0396632 0.259834 9.16709e-05 0.261992 0.0341748 0.0365756 0.315942 3.35502e-05 0.318524 0.00877911 0.0133157 144563
3.94427e+08 0.00104626 9.62658e-05 3.28876e+06 152936 0 0 0 0.189942 0.000124188 0.188098 0.0450651 0.0403032 0.262583 0.000100281 0.26473 0.0332144 0.0355319 0.31684 3.56482e-05 0.319318 0.00830948 0.0128228 112783
6.24894e+08 0.00257288 0.000170549 5.35584e+06 228414 0 0 0 0.192588 0.000139209 0.19112 0.0440744 0.040294 0.264581 0.000110608 0.266705 0.03248 0.0347192 0.317439 3.90402e-05 0.319803 0.00810128 0.0123034 88228
9.9041e+08 0.00488576 0.000266685 8.42994e+06 344150 0 0 0 0.195861 0.000157729 0.194406 0.0441251 0.0401636 0.266855 0.00012287 0.269168 0.0313469 0.0341594 0.317893 4.54784e-05 0.32035 0.00777382 0.0120534 68362
1.57003e+09 0.00842728 0.00039428 1.39068e+07 501030 0 0 0 0.198859 0.000177929 0.197774 0.0436807 0.0405131 0.269019 0.000136381 0.271526 0.0304671 0.0338773 0.318391 5.196e-05 0.321062 0.0074499 0.0120966 53754
2.48412e+09 0.01604 0.000615615 2.1344e+07 726414 0 0 0 0.202167 0.000202772 0.201403 0.0435541 0.0414171 0.271398 0.000153363 0.273842 0.0304042 0.0334148 0.318896 6.2499e-05 0.321818 0.00721884 0.0120973 41646
3.93938e+09 0.0280485 0.000922784 3.53667e+07 1.09535e+06 0 0 0 0.205327 0.000230296 0.20451 0.0439316 0.0411539 0.273594 0.000174971 0.276305 0.029907 0.0332139 0.319334 7.74719e-05 0.322633 0.00680453 0.0118606 32016
6.25491e+09 0.0485211 0.00136121 5.48576e+07 1.53363e+06 0 0 0 0.208464 0.000261897 0.207782 0.0441613 0.0416124 0.275734 0.000199604 0.279069 0.0290645 0.0338016 0.319298 0.000100665 0.323425 0.00635126 0.0122856 24917
9.91987e+09 0.0735189 0.00186357 7.53822e+07 2.01806e+06 0 0 0 0.212686 0.000298536 0.212518 0.044179 0.0425747 0.27864 0.000223809 0.282806 0.0276771 0.0345023 0.319447 0.000122897 0.324305 0.00586438 0.012758 19614
1.57475e+10 0.110333 0.00247789 1.0052e+08 2.54487e+06 0 0 0 0.216466 0.000333436 0.216362 0.0446626 0.0430757 0.281009 0.000248628 0.285989 0.0262932 0.0342962 0.318757 0.000157687 0.324925 0.00544298 0.0138253 15988
2.49649e+10 0.148823 0.00309596 1.28049e+08 3.05483e+06 0 0 0 0.218602 0.000364493 0.219208 0.0439439 0.0439507 0.281284 0.000273718 0.28673 0.0251342 0.0343089 0.317475 0.000186618 0.324741 0.00546464 0.0169564 13217
3.9463e+10 0.210052 0.00388707 1.62434e+08 3.63804e+06 0 4.58646e+08 0 0.220574 0.000399336 0.220575 0.0443647 0.0431821 0.280122 0.000311364 0.286505 0.0245618 0.036712 0.314928 0.000233873 0.324233 0.00567195 0.0234456 10983
6.24772e+10 0.258962 0.00468847 1.77011e+08 4.11867e+06 0 4.7771e+08 0 0.219949 0.000445461 0.220825 0.0430389 0.0447236 0.27686 0.000357745 0.283706 0.0250302 0.0389843 0.31214 0.000278922 0.322831 0.00636303 0.0304579 8731
9.85914e+10 0.305166 0.00565184 1.9878e+08 4.93531e+06 0 5.84386e+08 0 0.216898 0.000499311 0.217805 0.0417483 0.0435084 0.272025 0.000424038 0.279163 0.025734 0.0415337 0.308164 0.000348464 0.320337 0.00774676 0.0355932 6639
1.54967e+11 0.344762 0.00733477 2.09411e+08 6.3619e+06 0 6.06006e+08 0 0.211152 0.000626021 0.211443 0.0420733 0.0427453 0.263971 0.000552891 0.27006 0.0295551 0.0414159 0.303472 0.000461726 0.315576 0.0107663 0.0397933 4200
2.42072e+11 0.394286 0.0111413 2.15482e+08 9.37591e+06 0 6.06006e+08 0 0.202698 0.000877258 0.202723 0.0402148 0.0399259 0.253821 0.000831069 0.258401 0.0327573 0.0418262 0.298063 0.000679895 0.308389 0.0151182 0.0381674 1925
3.78398e+11 0.468484 0.0206137 2.53966e+08 1.80324e+07 0 6.74785e+08 0 0.193877 0.00154351 0.192736 0.0377226 0.0380798 0.240722 0.00151453 0.242467 0.0381256 0.0384699 0.289575 0.00131457 0.296853 0.0226968 0.0403796 587
5.85904e+11 0.392857 0.0536073 2.28091e+08 4.30592e+07 0 6.74785e+08 0 0.182268 0.00377288 0.184514 0.0321735 0.0414731 0.230915 0.00383018 0.236073 0.0270061 0.0360374 0.288209 0.0033463 0.293884 0.0240507 0.0337847 84
8.71754e+11 0.625 0.182981 1.60099e+08 1.05011e+08 0 6.06006e+08 0 0.173919 0.00570375 0.179871 0.0030708 0.0219424 0.221086 0.0102038 0.217778 0.0407244 0.0113585 0.284467 0.0104272 0.293447 0.0200694 0.0490407 8
